Date,Open,High,Low,Close,Volume,Adj Close
1993-04-30,19.0416666667,19.2083333333,18.7083333333,18.8541666667,27466.6666667,3.55504816667
1993-05-31,17.39375,17.61875,17.16875,17.36875,36580.0,3.2749654
1993-06-30,17.9431818182,18.1022727273,17.9204545455,17.9943181818,58490.9090909,3.37501077273
1993-07-31,18.4404761905,18.5595238095,18.3333333333,18.4523809524,63600.0,3.47928961905
1993-08-31,18.7784090909,18.875,18.6534090909,18.8068181818,14109.0909091,3.5551725
1993-09-30,19.255952381,19.4166666667,19.0952380952,19.3035714286,52780.952381,3.64951790476
1993-10-31,21.4404761905,21.5833333333,21.2976190476,21.4047619048,62457.1428571,4.04676733333
1993-11-30,21.0125,21.13125,20.8875,21.0125,37940.0,3.9811344
1993-12-31,20.8465909091,20.9545454545,20.7159090909,20.8011363636,45872.7272727,3.94203209091
1994-01-31,20.4523809524,20.6130952381,20.3511904762,20.5476190476,20400.0,3.89398785714
1994-02-28,21.3157894737,21.5,21.25,21.4013157895,20400.0,4.06444926316
1994-03-31,22.2897727273,22.4147727273,22.1818181818,22.2784090909,59127.2727273,4.232067
1994-04-30,22.1118421053,22.2763157895,22.0131578947,22.1842105263,45873.6842105,4.21417278947
1994-05-31,23.2321428571,23.4880952381,23.0654761905,23.2976190476,50171.4285714,4.43654795238
1994-06-30,24.2443181818,24.3920454545,24.0340909091,24.1818181818,35727.2727273,4.60606459091
1994-07-31,23.8,23.975,23.71875,23.825,16840.0,4.5380991
1994-08-31,23.2159090909,23.3352272727,23.125,23.2443181818,26400.0,4.43789781818
1994-09-30,24.7321428571,24.9047619048,24.5773809524,24.755952381,200457.142857,4.72705966667
1994-10-31,27.1547619048,27.255952381,27.0178571429,27.1130952381,144971.428571,5.17714747619
1994-11-30,27.3333333333,27.5119047619,27.1130952381,27.25,140476.190476,5.21411957143
1994-12-31,26.7375,27.025,26.575,26.84375,77540.0,5.1369247
1995-01-31,26.5952380952,26.7857142857,26.3333333333,26.4702380952,62971.4285714,5.0654477619
1995-02-28,26.9210526316,27.2236842105,26.7171052632,26.9671052632,99957.8947368,5.17209568421
1995-03-31,28.0227272727,28.1818181818,27.8181818182,28.0,71981.8181818,5.37082636364
1995-04-30,29.0131578947,29.2828947368,28.7960526316,29.0723684211,90126.3157895,5.57652289474
1995-05-31,30.3522727273,30.5340909091,30.2272727273,30.4034090909,72981.8181818,5.84195168182
1995-06-30,31.3522727273,31.5795454545,31.1761363636,31.4034090909,81054.5454545,6.03572354545
1995-07-31,31.5986842105,31.8552631579,31.4572358421,31.6776315789,65052.6315789,6.08842905263
1995-08-31,32.6141304348,32.7717391304,32.3967391304,32.527173913,92330.4347826,6.26339482609
1995-09-30,33.20625,33.45625,33.08125,33.31875,60160.0,6.41762115
1995-10-31,32.8011363636,33.0852272727,32.5965909091,32.8068181818,97000.0,6.31901654545
1995-11-30,35.0625,35.225,34.90625,35.075,147560.0,6.76810245
1995-12-31,36.71875,37.00625,36.44375,36.76875,112620.0,7.0963284
1996-01-31,36.1818181818,36.4375,35.9318181818,36.2045454545,94127.2727273,6.98743759091
1996-02-29,37.1625,37.3625,37.0125,37.15,101440.0,7.181969
1996-03-31,38.075,38.45625,37.88125,38.2375,189200.0,7.39359685
1996-04-30,40.744047619,40.9464285714,40.2976190476,40.5297619048,266190.47619,7.8368282381
1996-05-31,38.8238636364,39.1818181818,38.6761363636,39.0113636364,214872.727273,7.5551745
1996-06-30,36.89375,37.00625,36.19375,36.46875,299120.0,7.06447775
1996-07-31,32.6488095238,33.0416666667,32.4047619048,32.7857142857,157390.47619,6.35102519048
1996-08-31,35.1818181818,35.4431818182,35.0170454545,35.1931818182,97836.3636364,6.83083063636
1996-09-30,33.46875,33.65625,33.15312595,33.325,123640.0,6.4688102
1996-10-31,31.8913043478,32.1086956522,31.6467391304,31.9130434783,107426.086957,6.19473147826
1996-11-30,34.6381578947,34.9473684211,34.4013157895,34.6973684211,137094.736842,6.74985515789
1996-12-31,33.9583333333,34.2619047619,33.6904761905,34.0,135961.904762,6.61419266667
1997-01-31,34.5852272727,34.8011363636,34.3125,34.5170454545,154672.727273,6.71477618182
1997-02-28,36.2222222222,36.7361111111,36.0486111111,36.4375,170822.222222,7.10321477778
1997-03-31,39.41875,39.65,39.0375,39.36875,125080.0,7.6746397
1997-04-30,38.0340909091,38.3977272727,37.7159090909,38.1022727273,183309.090909,7.42774959091
1997-05-31,41.619047619,42.0892857143,41.4166666667,41.880952381,101923.809524,8.17730414286
1997-06-30,44.0875,44.43437595,43.79062405,44.08437595,111720.0,8.608887
1997-07-31,46.289771,46.8096582273,46.0738636364,46.539771,134763.636364,9.0883815
1997-08-31,53.907739,54.4494074762,53.6130988571,54.1755943333,141714.285714,10.5961829524
1997-09-30,56.225,56.68437215,55.73125,56.3000019,143560.0,11.011695
1997-10-31,55.9320676957,56.5027215217,55.4347793043,55.9864155217,113217.391304,10.9510476087
1997-11-30,54.7861812105,55.4243411053,54.3980233158,54.9506548947,94800.0,10.763577
1997-12-31,55.8210235909,56.2059688636,55.2784125455,55.7670454545,118000.0,10.9234853636
1998-01-31,50.7124981,51.0187443,50.04062785,50.43125,213560.0,9.8783287
1998-02-28,55.6677621579,56.3256548947,55.2664483684,55.9276375789,157705.263158,10.9721566316
1998-03-31,60.7038722857,61.2068475714,60.375,60.7946401429,150152.380952,11.9269888095
1998-04-30,59.315474381,60.1369065714,58.7797600952,59.3869047619,173580.952381,11.6508124762
1998-05-31,63.5437519,64.1374981,63.20937385,63.7062517,175920.0,12.5135647
1998-06-30,61.3928513333,61.9523825714,60.8913674286,61.2946421429,127809.52381,12.0406178571
1998-07-31,63.9801085909,64.5823891364,63.6051124091,63.9772683636,393963.636364,12.5683061364
1998-08-31,54.2053616667,54.7916684762,53.5148818571,54.0476235714,150504.761905,11.7156309048
1998-09-30,26.58125,26.903125,25.796875,26.34375,227880.0,10.3633536
1998-10-31,24.0653409091,24.7642045455,23.4602272727,24.1846590909,236272.727273,9.51469645455
1998-11-30,27.83125,28.0875,27.5375,27.88125,178660.0,10.9843881
1998-12-31,27.9517045455,28.3920454545,27.4431818182,27.9431818182,160572.727273,10.9905818182
1999-01-31,26.875,27.3914473684,26.5625,27.0263157895,148515.789474,10.6475692632
1999-02-28,26.5328947368,27.1546052632,25.9440789474,26.5164473684,140789.473684,10.4620175263
1999-03-31,27.3380681818,27.8920454545,26.9488636364,27.4119318182,114672.727273,10.8153293182
1999-04-30,27.0089285714,27.7232142857,26.3720238095,27.0148809524,143704.761905,10.6586737143
1999-05-31,28.525,29.103125,28.021875,28.446875,152970.0,11.2397213
1999-06-30,29.0511363636,29.53125,28.5426136364,29.1278409091,140309.090909,11.5087796818
1999-07-31,29.240625,29.496875,28.689062,29.115625,153210.0,11.50497345
1999-08-31,27.0113636364,27.2045454545,26.6136363636,26.8835227273,152218.181818,10.6409803636
1999-09-30,25.0773809524,25.5892857143,24.6339285714,25.1726190476,178114.285714,9.96377409524
1999-10-31,25.596875,25.9625,25.1625,25.63125,150130.0,10.14634585
1999-11-30,27.5892857143,27.9226190476,27.1696428571,27.6607142857,138857.142857,10.9699599048
1999-12-31,26.4659090909,26.8579545455,26.0085227273,26.4715909091,174490.909091,10.4983657273
2000-01-31,24.9967105263,25.6398031579,24.5230263158,24.8322368421,200526.315789,9.84821447368
2000-02-29,23.3375,23.9625,22.6875,23.43125,272030.0,9.30864225
2000-03-31,24.1222826087,24.7961956522,23.5489130435,24.285326087,242556.521739,9.65218413043
2000-04-30,25.6840277778,26.4409722222,25.1666666667,25.8923611111,159722.222222,10.2908988333
2000-05-31,27.1136363636,27.3721590909,26.6477272727,27.0539772727,120681.818182,10.7714795455
2000-06-30,27.7301136364,28.1136363636,27.4232954545,27.78125,180490.909091,11.0610416818
2000-07-31,27.6546052632,28.0855263158,27.0855263158,27.5723684211,211589.473684,10.9799758947
2000-08-31,24.4972826087,24.7608695652,24.0679347826,24.402173913,170913.043478,9.735438
2000-09-30,23.7875,24.2125,23.471875,23.884375,189600.0,9.5288582
2000-10-31,21.8214285714,22.1904761905,21.4107142857,21.8363095238,278704.761905,8.71368557143
2000-11-30,23.0446428571,23.5148809524,22.7023809524,23.2380952381,303171.428571,9.29389671429
2000-12-31,26.7625,27.253125,26.54375,27.0125,183110.0,10.8034408
2001-01-31,28.58462495,29.11400005,28.10150005,28.673125,214690.0,11.467595
2001-02-28,29.1126316316,29.4636839474,28.7494735263,29.0257892632,157610.526316,11.6267418947
2001-03-31,29.9100001364,30.4759091818,29.4995455,30.0481818182,237181.818182,12.0385037727
2001-04-30,31.0421053158,31.5647368947,30.7147369474,31.1368420526,161715.789474,12.4757099474
2001-05-31,34.3027277727,34.8181821818,33.7486360909,34.380909,203363.636364,13.7959916364
2001-06-30,34.1133333333,34.5438098095,33.5938098571,34.0976192381,160076.190476,13.6823162857
2001-07-31,32.3739998,32.815,31.96749995,32.32749995,128950.0,12.97556425
2001-08-31,34.537826,34.9178256957,34.2369568261,34.586522,126452.173913,13.9033101304
2001-09-30,33.148,33.5326666,32.4353334667,32.983333,177600.0,13.2588501333
2001-10-31,31.7013043043,32.1117392609,31.2943476522,31.7465216087,227765.217391,12.7648211739
2001-11-30,31.7900001905,32.2461909524,31.5447622381,31.9928574762,171476.190476,12.8864824286
2001-12-31,33.59549975,33.94350015,33.3010003,33.73499985,186070.0,13.5882043
2002-01-31,31.6885715714,32.006190619,31.2004762381,31.5866668571,427190.47619,12.7228673333
2002-02-28,32.907895,33.3436843158,32.6863162105,33.0994741053,201431.578947,13.3560291053
2002-03-31,34.2336841053,34.5489474211,33.9252628421,34.2447376316,224610.526316,13.8194750526
2002-04-30,36.1709085455,36.5636361818,35.8627273182,36.3063637727,160072.727273,14.6536883636
2002-05-31,36.8186358182,37.3031816818,36.4240912273,36.9036365455,146518.181818,14.9170708182
2002-06-30,34.81500005,35.1060001,34.2060002,34.5085002,209690.0,13.9467917
2002-07-31,29.3995454091,29.8695450909,28.8968181364,29.3968183636,200236.363636,11.8873967273
2002-08-31,30.6233332857,31.0261906667,30.281428381,30.7090475238,96057.1428571,12.4398367143
2002-09-30,29.6930001,29.8294998,29.21849995,29.416,139010.0,11.91603995
2002-10-31,26.5417392174,26.959999913,26.2095653913,26.5900003043,170521.73913,10.7754805652
2002-11-30,28.723,29.0620001,28.5039999,28.8139999,104810.0,11.69728825
2002-12-31,30.8504760952,31.3142853333,30.4538095238,30.9800001429,200095.238095,12.5765945238
2003-01-31,29.9933331905,30.2442858571,29.6419045238,29.8628571905,93247.6190476,12.1230808571
2003-02-28,28.7738891111,29.2166666111,28.4600001667,28.8377776111,168344.444444,11.7273862222
2003-03-31,30.9980951905,31.3576190952,30.6914284762,31.0804761905,166885.714286,12.6394185714
2003-04-30,32.21150005,32.6835001,31.86249965,32.27550005,152930.0,13.12789405
2003-05-31,34.6176191429,34.8261904286,34.4147624286,34.7119051429,151542.857143,14.1416606667
2003-06-30,35.4685711429,35.7804757143,35.1780950952,35.5033332857,118085.714286,14.4640891429
2003-07-31,36.8923808095,37.244285619,36.505238,36.9219049048,132019.047619,15.0487967619
2003-08-31,37.4738095238,37.8428569048,37.1371430952,37.5895239048,95657.1428571,15.3428368571
2003-09-30,38.1452380952,38.4933331429,37.6190478571,38.011905,132847.619048,15.515239381
2003-10-31,37.5409087727,37.8004544091,37.2295454091,37.5109093636,142254.545455,15.3172292273
2003-11-30,35.6568420526,35.9768416316,35.4689479474,35.7563162105,156621.052632,14.6229984737
2003-12-31,37.2568178636,37.5963635909,37.0018180455,37.4481817727,260072.727273,15.3149084091
2004-01-31,39.83549995,40.2195002,39.50150005,39.968,181360.0,16.34194
2004-02-29,40.3678941053,40.8368417368,40.0542106842,40.4142101579,122431.578947,16.5568265263
2004-03-31,38.924348,39.2013043913,38.5995652174,38.8813043043,146313.043478,15.9283022609
2004-04-30,39.781428381,40.3685713333,39.3885714286,39.8638088095,163561.904762,16.3353742857
2004-05-31,39.1425001,39.61450015,38.85100005,39.28400045,180340.0,16.12201805
2004-06-30,41.9265002,42.5514998,41.6764999,42.17849995,299880.0,17.30991075
2004-07-31,42.7547618571,43.2204761429,42.3314285238,42.6909522857,252133.333333,17.5374478571
2004-08-31,43.0814284762,43.6795238095,42.6790475238,43.3028572857,184695.238095,17.8331914762
2004-09-30,45.3528571905,45.8257139048,44.902381,45.390476,158400.0,18.6929247619
2004-10-31,45.8161904762,46.441428619,45.352856619,45.9466662381,225390.47619,18.9339004286
2004-11-30,49.542,50.37200035,49.23450035,50.01950045,182380.0,20.66552145
2004-12-31,52.7977270455,53.3936360909,52.2990912273,52.8740906818,188436.363636,21.8448933636
2005-01-31,49.3884207895,50.0168419474,48.7300006842,49.1510525263,196947.368421,20.3100596842
2005-02-28,49.6142106842,50.2315790526,49.0668424211,49.7931582632,193094.736842,20.6371107895
2005-03-31,51.4872723636,52.1304546364,50.9631815455,51.4504541818,212636.363636,21.3239881818
2005-04-30,51.0444997,51.68149995,50.18299975,50.9344999,289520.0,21.1195111
2005-05-31,50.3752377619,50.9428574286,49.8380947619,50.4604760952,219133.333333,20.9792451429
2005-06-30,49.5840907727,50.1031821364,49.0881816818,49.6186363636,323427.272727,20.6292451364
2005-07-31,50.5878951053,51.0242108421,50.1447368947,50.5731578421,187642.105263,21.0304065263
2005-08-31,49.5500000435,49.9239131304,49.2321738696,49.573912913,161521.73913,20.6921485217
2005-09-30,49.3285002,49.70100045,48.95500005,49.27849955,165450.0,20.56884305
2005-10-31,50.1338096667,50.7528571905,49.6776189048,50.2738094286,297619.047619,20.9883107619
2005-11-30,52.768571381,53.3400001429,52.2542858571,53.0057141429,157361.904762,22.212117619
2005-12-31,53.70549935,54.0955001,53.19100025,53.55349995,209060.0,22.44166805
2006-01-31,54.02950025,54.6810001,53.7609999,54.3270002,140530.0,22.7743374
2006-02-28,54.7973685263,55.2247366316,54.2005263684,54.7115786842,181800.0,23.010974
2006-03-31,54.1745457273,54.6150000909,53.8404550455,54.3013638636,159372.727273,22.8384430909
2006-04-30,53.0321055789,53.6536847368,52.5005261579,53.0010528421,179957.894737,22.3048370526
2006-05-31,52.680952381,53.1357145714,52.1890479048,52.7171428095,176990.47619,22.2569621905
2006-06-30,51.3277270909,51.8031814545,50.6931816364,51.2045453636,394036.363636,21.6183497273
2006-07-31,49.7000001,50.33699965,49.05150005,49.68799995,367030.0,20.98762365
2006-08-31,51.3349997273,51.8490911364,50.8590907727,51.3595452727,232618.181818,21.7789510909
2006-09-30,50.7169997,51.1694999,50.1839999,50.7265003,297320.0,21.51050905
2006-10-31,53.7904761905,54.4500004762,53.3257138571,54.0666668571,305066.666667,22.9358148571
2006-11-30,58.3452380952,58.9500001429,57.849524,58.6623808571,374371.428571,24.9753751429
2006-12-31,59.9068422632,60.3363153684,59.3773681053,59.8099998947,325831.578947,25.4639713158
2007-01-31,60.0509998,60.6299998,59.5160001,60.1545,321290.0,25.62478975
2007-02-28,64.4052635263,65.0405255263,63.7605258947,64.4010525789,592021.052632,27.5178466316
2007-03-31,66.6980957143,67.2757139048,66.0433327619,66.6971427143,388600.0,28.4989402857
2007-04-30,71.2130001,71.92400005,70.52700075,71.2885005,363430.0,30.4661621
2007-05-31,49.5561902381,50.0166669048,49.0761909524,49.6052382381,363895.238095,31.837837381
2007-06-30,36.7857139048,37.1299998095,36.2723808095,36.6771427143,318261.904762,31.451341381
2007-07-31,36.9576189048,37.4690475714,36.549523619,37.1133336667,464623.809524,31.8413842381
2007-08-31,36.9218184091,37.5999997273,36.1049997273,36.8204549091,491431.818182,31.6889539545
2007-09-30,35.4368422632,35.9036847368,35.0905262632,35.5042102632,390647.368421,30.5561484211
2007-10-31,40.7259089545,41.4659087727,40.1836363182,40.9922728636,377868.181818,35.2944625
2007-11-30,42.1876186667,42.8057142381,41.3247623333,42.0347619524,390533.333333,36.2828234286
2007-12-31,42.09900035,42.5739996,41.44499985,41.9609999,316760.0,36.2191548
2008-01-31,37.61300015,38.55200015,36.7319998,37.6169996,567465.0,32.4863473
2008-02-29,37.86500015,38.54400025,37.20099985,37.9034998,802015.0,32.831362
2008-03-31,37.2005260526,37.8942104211,36.4663155263,37.1863158421,542121.052632,32.2101495263
2008-04-30,42.2477269545,42.8009090455,41.6059089545,42.3363640909,465940.909091,36.6862097727
2008-05-31,44.3447617619,44.8585712857,43.6685715238,44.343333619,386885.714286,38.520841
2008-06-30,43.2300001,43.71499975,42.57550005,43.07999995,692925.0,37.42338915
2008-07-31,39.8772729091,40.5536369091,39.2186369091,39.9431818636,586918.181818,34.7227305909
2008-08-31,39.5839998,40.07700025,39.1629999,39.69400005,300670.0,34.62013735
2008-09-30,39.831428619,40.6433334286,39.1885712857,39.8861905714,406090.47619,34.7877611905
2008-10-31,32.4568180455,33.4990907273,30.645,32.4481818182,661427.272727,28.3321731818
2008-11-30,30.5352634737,31.3936843684,29.7715790526,30.6331575789,448278.947368,26.8658664737
2008-12-31,32.5318185909,33.3336365455,31.7504546364,32.6404546818,523454.545455,28.6263044091
2009-01-31,31.91799985,32.38300045,31.177,31.77950005,526380.0,27.89840765
2009-02-28,28.6857893158,29.2652634211,28.1910525789,28.7157895263,593131.578947,25.3093023684
2009-03-31,28.2576189048,28.8123807143,27.7723811429,28.3295235714,423476.190476,24.9688582381
2009-04-30,31.0209524762,31.5114283333,30.5619049524,31.1590474762,416485.714286,27.4882240952
2009-05-31,30.95200015,31.29650015,30.5355001,30.9855001,296745.0,27.44572235
2009-06-30,32.893809619,33.319047619,32.5557140952,33.023333381,266166.666667,29.2507540476
2009-07-31,34.3613636818,34.776364,34.0363635909,34.4350002273,218050.0,30.5305395455
2009-08-31,35.33499975,35.67100055,34.9650003,35.30200015,138520.0,31.39972025
2009-09-30,35.9576193333,36.3628574762,35.6342860952,36.0747619048,181409.52381,32.0870608095
2009-10-31,37.0345454091,37.3949997727,36.6040902727,36.9799999091,226477.272727,32.921835
2009-11-30,35.9894742632,36.3278944737,35.6884209474,36.0936837368,180084.210526,32.2347147368
2009-12-31,36.4399996364,36.6522728182,36.1554547727,36.3736363636,152250.0,32.4847363182
2010-01-31,36.3922222222,36.6688886111,36.1588891667,36.4144446111,156700.0,32.5211813889
2010-02-28,36.8668423684,37.2131577895,36.5515793158,36.9594741053,239394.736842,33.1480798947
2010-03-31,39.7939126957,40.0756519565,39.5526086522,39.8230434783,180900.0,35.7163477826
2010-04-30,41.72349965,42.16849995,41.4314998,41.8859999,213505.0,37.60020665
2010-05-31,40.9145001,41.3524997,40.2985001,40.805,257935.0,36.72443815
2010-06-30,39.1552388571,39.5757147143,38.7009527619,39.105238381,184404.761905,35.1946553333
2010-07-31,40.387619,40.8552384286,39.9838096667,40.5633336667,171404.761905,36.5146999524
2010-08-31,42.2990908636,42.6686360455,41.9263632273,42.3177271818,135409.090909,38.2460282727
2010-09-30,44.59349995,44.96299995,44.26599955,44.6164998,152385.0,40.3236193
2010-10-31,46.0366664286,46.3690478095,45.6633339048,46.0328569524,161752.380952,41.6036981429
2010-11-30,45.81200005,46.1364996,45.50699995,45.85349985,127185.0,41.60847775
2010-12-31,47.4140906364,47.7227269545,47.1168184091,47.4077269091,152840.909091,43.0188174545
2011-01-31,48.1730001,48.4154999,47.7250001,48.16900005,142680.0,43.717854
2011-02-28,48.7888886111,49.1694446667,48.4205557222,48.8466666667,176200.0,44.4920496667
2011-03-31,48.4113048261,48.8934782609,48.0265221304,48.5073914783,166078.26087,44.1830204348
2011-04-30,50.7521054211,51.0963155263,50.3352627368,50.7984207895,115663.157895,46.3048315789
2011-05-31,52.099524,52.6833332381,51.7180953333,52.2433337143,200619.047619,47.7532363333
2011-06-30,51.2,51.5663630909,50.7890909091,51.1386363636,191168.181818,46.7434830455
2011-07-31,52.7147366842,53.2757900526,52.1173687895,52.8763160526,215168.421053,48.3424064211
2011-08-31,48.0069563043,48.7230433478,47.2986958261,48.0656519565,284447.826087,44.1240556522
2011-09-30,47.8509998,48.32449985,47.1125,47.6880003,248770.0,43.77737325
2011-10-31,47.4676187619,48.1485711905,46.8271428095,47.5861909524,184552.380952,43.6839125238
2011-11-30,47.9266668571,48.4409527143,47.4280952857,48.020476,227319.047619,44.2445288571
2011-12-31,51.07549995,51.65700015,50.60999995,51.14200005,210180.0,47.1609162
2012-01-31,51.93549985,52.2654999,51.55599985,51.9204998,198200.0,47.8991859
2012-02-29,52.993684,53.3768415789,52.4363156316,52.9905262105,191947.368421,49.0720476842
2012-03-31,53.8640904545,54.2086363636,53.6186365909,54.0290907273,233986.363636,50.0338137727
2012-04-30,54.4050001,54.75949995,53.9484997,54.45750005,242535.0,50.48197565
2012-05-31,52.2223804762,52.6471427619,51.7514291905,52.1133333333,330009.52381,48.456187619
2012-06-30,51.4971429524,51.9119051429,51.124285619,51.4904765238,204071.428571,47.8770407143
2012-07-31,50.1115004,50.5864998,49.60899955,50.2494999,273470.0,46.72315185
2012-08-31,50.2417387826,50.5121738696,49.8891303043,50.2504347391,171330.434783,46.8952377391
2012-09-30,51.7078947895,52.0915785789,51.3584211579,51.7957894737,256273.684211,48.3738566842
2012-10-31,51.94600015,52.21900035,51.5414999,51.93050015,163330.0,48.49966745
2012-11-30,48.063333619,48.5728574286,47.5604759524,47.9680952857,344547.619048,44.9787022857
2012-12-31,47.5426318947,47.8973681053,47.2089475789,47.5484214211,278094.736842,44.6053828421
2013-01-31,51.1152381905,51.4252382381,50.7585712857,51.1609524286,240809.52381,48.0388193333
2013-02-28,52.7152632105,53.0452631579,52.3389472632,52.775789,227331.578947,49.7482334211
2013-03-31,55.3557895263,55.6936844737,55.0473689474,55.4821056842,205605.263158,52.2992986316
2013-04-30,56.2277268636,56.4759085455,55.6850005,56.1409086364,202954.545455,52.9738600455
2013-05-31,56.3590907727,56.7545452727,56.0872725909,56.4109093182,194504.545455,53.4125537273
2013-06-30,56.24799995,56.6415,55.7864999,56.18049965,174155.0,53.1944291
2013-07-31,58.3186362727,58.6986363182,57.9340907273,58.3386365909,180795.454545,55.2705469545
2013-08-31,59.5652384286,59.982857619,59.2257141429,59.6071431905,141847.619048,56.6835174762
2013-09-30,59.6355,60.0324996,59.16750055,59.60600025,198095.0,56.6824305
2013-10-31,61.8672725455,62.4581815455,61.4849994091,62.1690907273,193545.454545,59.1198060455
2013-11-30,64.4044994,64.7455005,63.96299995,64.3844995,236805.0,61.45514155
2013-12-31,64.9485715714,65.3285714762,64.542856381,65.0519049524,176171.428571,62.1042389048
2014-01-31,66.5229998,66.9035011,65.90699995,66.3084997,462640.0,63.3630584
2014-02-28,63.9626312632,64.5321057895,63.5457891579,64.0415787368,239331.578947,61.3776636316
2014-03-31,65.02449975,65.4445002,64.5430003,64.94150035,174200.0,62.24015135
2014-04-30,66.5776189048,66.9909526667,65.9585716667,66.5180954762,217514.285714,63.7896659524
2014-05-31,66.487143,66.8019048095,66.0190472857,66.4466657619,178085.714286,63.9494011429
2014-06-30,66.3754998,66.8880009,66.0600006,66.51449995,174120.0,64.01468595
2014-07-31,65.2331820909,65.5790909545,64.7249994545,65.1109090455,249322.727273,62.7120415455
2014-08-31,62.86,63.2130004,62.46499995,62.89150005,212935.0,60.79592475
2014-09-30,62.7371433333,63.0390474286,62.243333619,62.603809381,270466.666667,60.51782
2014-10-31,59.3640909545,60.2090906364,58.7490907727,59.5613635909,448822.727273,57.5767499545
2014-11-30,64.5126315263,64.9278948421,64.1631578947,64.6478943684,264057.894737,62.7762083158
2014-12-31,66.2059092273,66.7181813636,65.7454546364,66.2504538182,207590.909091,64.3323705909
2015-01-31,64.4336841579,64.9984210526,63.6452628947,64.2694733684,294821.052632,62.4797217368
2015-02-28,64.6499996842,65.327368,64.266315,64.8263160526,371021.052632,63.227124
2015-03-31,64.01,64.4290471429,63.5223805238,63.9623809524,311290.47619,62.3845011429
2015-04-30,63.0909525714,63.398571381,62.6866664286,63.0447622381,299161.904762,61.5411545714
2015-05-31,64.31399985,64.68499995,63.8415003,64.2459998,488285.0,62.9395716
2015-06-30,64.444091,64.8368170455,64.010909,64.4377270909,330695.454545,63.1010239545
2015-07-31,63.829091,64.4159089545,63.4309092727,63.9204546818,341009.090909,62.6866342727
2015-08-31,68.1480004,68.90149995,67.6615008,68.41300025,266755.0,67.32712845
2015-09-30,66.8466662381,67.3819042381,66.2628568571,66.8576191905,303409.52381,65.796435
2015-10-31,69.7340913636,70.5559088636,69.3145464091,70.1295453636,291259.090909,69.0164281818
2015-11-30,73.4210534211,73.9589474737,72.7421052105,73.3436844737,247589.473684,72.4751258421
2015-12-31,73.2990906818,73.8668178182,72.7299998182,73.2309095455,196122.727273,72.3636863182
2016-01-31,69.6133325,70.3716668333,68.8888896667,69.6644444444,387566.666667,68.9245703889
2016-02-29,73.27150035,74.18349955,72.27550035,73.2925008,358150.0,72.7443015
2016-03-31,76.3271422381,77.060951619,75.7404752381,76.5404768095,298780.952381,75.9679840952
2016-04-30,78.6204764762,79.0976191905,77.9938108095,78.5990469524,265271.428571,78.0815692857
2016-05-31,76.2123805714,76.808095619,75.7190486667,76.2923809048,308104.761905,76.0079195238
2016-06-30,77.0461910476,77.6690476667,76.5676197619,77.2185707619,243633.333333,76.9306560952
2016-07-31,79.83899925,80.35399965,79.23950045,79.68100045,199370.0,79.45801525
2016-08-31,77.20499975,77.45750025,76.43250075,76.83749975,273625.0,76.83749975
