1993-04-30,19.0416666667
1993-05-31,17.39375
1993-06-30,17.9431818182
1993-07-31,18.4404761905
1993-08-31,18.7784090909
1993-09-30,19.255952381
1993-10-31,21.4404761905
1993-11-30,21.0125
1993-12-31,20.8465909091
1994-01-31,20.4523809524
1994-02-28,21.3157894737
1994-03-31,22.2897727273
1994-04-30,22.1118421053
1994-05-31,23.2321428571
1994-06-30,24.2443181818
1994-07-31,23.8
1994-08-31,23.25
1994-09-30,24.7321428571
1994-10-31,27.1547619048
1994-11-30,27.3333333333
1994-12-31,26.6726190476
1995-01-31,26.5952380952
1995-02-28,26.9210526316
1995-03-31,28.0652173913
1995-04-30,29.0131578947
1995-05-31,30.3522727273
1995-06-30,31.3522727273
1995-07-31,31.6
1995-08-31,32.6141304348
1995-09-30,33.20625
1995-10-31,32.8011363636
1995-11-30,35.0535714286
1995-12-31,36.71875
1996-01-31,36.1818181818
1996-02-29,37.1625
1996-03-31,38.075
1996-04-30,40.744047619
1996-05-31,38.8238636364
1996-06-30,36.89375
1996-07-31,32.6875
1996-08-31,35.1818181818
1996-09-30,33.46875
1996-10-31,31.8913043478
1996-11-30,34.50625
1996-12-31,33.9583333333
1997-01-31,34.5852272727
1997-02-28,36.2631578947
1997-03-31,39.41875
1997-04-30,38.0340909091
1997-05-31,41.619047619
1997-06-30,44.1071428571
1997-07-31,46.289771
1997-08-31,53.907739
1997-09-30,56.2023809524
1997-10-31,55.9320676957
1997-11-30,54.7861812105
1997-12-31,55.8210235909
1998-01-31,50.7124981
1998-02-28,55.6677621579
1998-03-31,58.2173326364
1998-04-30,59.315474381
1998-05-31,63.5437519
1998-06-30,61.3409035455
1998-07-31,63.9801085909
1998-08-31,54.2053616667
1998-09-30,26.5863095238
1998-10-31,24.0653409091
1998-11-30,27.83125
1998-12-31,27.9517045455
1999-01-31,26.875
1999-02-28,26.5328947368
1999-03-31,27.277173913
1999-04-30,27.0089285714
1999-05-31,28.525
1999-06-30,29.0511363636
1999-07-31,29.2886904762
1999-08-31,27.0113636364
1999-09-30,25.0773809524
1999-10-31,25.5833333333
1999-11-30,27.5892857143
1999-12-31,26.4659090909
2000-01-31,25.028125
2000-02-29,23.3375
2000-03-31,24.1222826087
2000-04-30,25.6480263158
2000-05-31,27.1136363636
2000-06-30,27.7301136364
2000-07-31,27.525
2000-08-31,24.4972826087
2000-09-30,23.7875
2000-10-31,21.7528409091
2000-11-30,23.0446428571
2000-12-31,26.7625
2001-01-31,28.6192856667
2001-02-28,29.1126316316
2001-03-31,29.9100001364
2001-04-30,31.0421053158
2001-05-31,34.3027277727
2001-06-30,34.1133333333
2001-07-31,32.3739998
2001-08-31,34.537826
2001-09-30,33.148
2001-10-31,31.7013043043
2001-11-30,31.7900001905
2001-12-31,33.59549975
2002-01-31,31.6885715714
2002-02-28,32.907895
2002-03-31,34.19049985
2002-04-30,36.1709085455
2002-05-31,36.8186358182
2002-06-30,34.81500005
2002-07-31,29.3995454091
2002-08-31,30.6704545
2002-09-30,29.6930001
2002-10-31,26.5417392174
2002-11-30,28.723
2002-12-31,30.8504760952
2003-01-31,29.9933331905
2003-02-28,28.6857896842
2003-03-31,30.9980951905
2003-04-30,32.2109524762
2003-05-31,34.6176191429
2003-06-30,35.4685711429
2003-07-31,36.8836362727
2003-08-31,37.4738095238
2003-09-30,38.1452380952
2003-10-31,37.6034779565
2003-11-30,35.6568420526
2003-12-31,37.2568178636
2004-01-31,39.83549995
2004-02-29,40.3678941053
2004-03-31,38.924348
2004-04-30,39.781428381
2004-05-31,39.1425001
2004-06-30,41.8790478095
2004-07-31,42.7547618571
2004-08-31,43.1377271818
2004-09-30,45.3528571905
2004-10-31,45.8161904762
2004-11-30,49.5447618095
2004-12-31,52.7977270455
2005-01-31,49.2999997
2005-02-28,49.6142106842
2005-03-31,51.4872723636
2005-04-30,51.028095
2005-05-31,50.3752377619
2005-06-30,49.5840907727
2005-07-31,50.59600035
2005-08-31,49.5500000435
2005-09-30,49.2352382381
2005-10-31,50.1338096667
2005-11-30,52.768571381
2005-12-31,53.7442850952
2006-01-31,54.02950025
2006-02-28,54.7973685263
2006-03-31,54.1234785217
2006-04-30,53.0321055789
2006-05-31,52.680952381
2006-06-30,51.3277270909
2006-07-31,49.7000001
2006-08-31,51.3626084783
2006-09-30,50.7169997
2006-10-31,53.8454545455
2006-11-30,58.3452380952
2006-12-31,59.9068422632
2007-01-31,60.0509998
2007-02-28,64.4052635263
2007-03-31,66.6204549091
2007-04-30,71.2130001
2007-05-31,48.971818
2007-06-30,36.7857139048
2007-07-31,36.9576189048
2007-08-31,36.8960872609
2007-09-30,35.4368422632
2007-10-31,40.7713042174
2007-11-30,42.1876186667
2007-12-31,42.09900035
2008-01-31,37.6790477619
2008-02-29,37.86500015
2008-03-31,37.2005260526
2008-04-30,42.2477269545
2008-05-31,44.3447617619
2008-06-30,43.2814287143
2008-07-31,39.8772729091
2008-08-31,39.5839998
2008-09-30,39.831428619
2008-10-31,32.1734781739
2008-11-30,30.5352634737
2008-12-31,32.5318185909
2009-01-31,31.91799985
2009-02-28,28.6857893158
2009-03-31,28.3640907727
2009-04-30,31.0209524762
2009-05-31,30.95200015
2009-06-30,32.8986364545
2009-07-31,34.3613636818
2009-08-31,35.3290473333
2009-09-30,35.9576193333
2009-10-31,37.0345454091
2009-11-30,35.94000055
2009-12-31,36.4399996364
2010-01-31,36.3857894737
2010-02-28,36.8668423684
2010-03-31,39.7939126957
2010-04-30,41.7066662857
2010-05-31,40.9145001
2010-06-30,39.1390915909
2010-07-31,40.387619
2010-08-31,42.2990908636
2010-09-30,44.59349995
2010-10-31,46.0366664286
2010-11-30,45.7876190476
2010-12-31,47.4140906364
2011-01-31,48.1730001
2011-02-28,48.8336838947
2011-03-31,48.4113048261
2011-04-30,50.80700005
2011-05-31,52.099524
2011-06-30,51.2
2011-07-31,52.7147366842
2011-08-31,48.0069563043
2011-09-30,47.8561902381
2011-10-31,47.4676187619
2011-11-30,47.9266668571
2011-12-31,51.0409522381
2012-01-31,51.93549985
2012-02-29,52.9854999
2012-03-31,53.8640904545
2012-04-30,54.4050001
2012-05-31,52.2345450909
2012-06-30,51.4971429524
2012-07-31,50.1223813333
2012-08-31,50.2417387826
2012-09-30,51.7078947895
2012-10-31,51.94600015
2012-11-30,48.063333619
2012-12-31,47.5365002
2013-01-31,51.1152381905
2013-02-28,52.7152632105
2013-03-31,55.3275001
2013-04-30,56.2277268636
2013-05-31,56.3590907727
2013-06-30,56.24799995
2013-07-31,58.3186362727
2013-08-31,59.6045457727
2013-09-30,59.6355
2013-10-31,61.8469563478
2013-11-30,64.4044994
2013-12-31,64.9485715714
2014-01-31,66.5819046667
2014-02-28,63.9626312632
2014-03-31,65.014285381
2014-04-30,66.5776189048
2014-05-31,66.487143
2014-06-30,66.361428381
2014-07-31,65.2331820909
2014-08-31,62.9047618571
2014-09-30,62.7371433333
2014-10-31,59.4260870435
2014-11-30,64.5126315263
2014-12-31,66.2059092273
2015-01-31,64.5015
2015-02-28,64.6499996842
2015-03-31,63.975909
2015-04-30,63.0909525714
2015-05-31,64.31399985
2015-06-30,64.444091
2015-07-31,63.829091
2015-08-31,68.1352383333
2015-09-30,66.8466662381
2015-10-31,69.7340913636
2015-11-30,73.4210534211
2015-12-31,73.2990906818
2016-01-31,69.5031569474
2016-02-29,73.27150035
2016-03-31,76.3271422381
2016-04-30,78.6204764762
2016-05-31,76.2123805714
2016-06-30,77.0461910476
2016-07-31,79.83899925
2016-08-31,77.20499975
